Freq.	V(vo)/V(vi)
1.00000000000000e+01	-2.38742361921261e+01
1.02305972984251e+01	-2.36416521283874e+01
1.04665121082543e+01	-2.34073280294518e+01
1.07078670498640e+01	-2.31712399157834e+01
1.09547875712233e+01	-2.29333635369136e+01
1.12074020130978e+01	-2.26936744952958e+01
1.14658416757562e+01	-2.24521483730701e+01
1.17302408872161e+01	-2.22087608610481e+01
1.20007370730629e+01	-2.19634878900356e+01
1.22774708278787e+01	-2.17163057638924e+01
1.25605859883189e+01	-2.14671912939943e+01
1.28502297078731e+01	-2.12161219346031e+01
1.31465525333508e+01	-2.09630759187100e+01
1.34497084831302e+01	-2.07080323937904e+01
1.37598551272117e+01	-2.04509715568112e+01
1.40771536691173e+01	-2.01918747879659e+01
1.44017690296786e+01	-1.99307247825008e+01
1.47338699327572e+01	-1.96675056798613e+01
1.50736289929412e+01	-1.94022031896601e+01
1.54212228052647e+01	-1.91348047135670e+01
1.57768320369952e+01	-1.88652994626439e+01
1.61406415215389e+01	-1.85936785693683e+01
1.65128403545104e+01	-1.83199351936452e+01
1.68936219920179e+01	-1.80440646223398e+01
1.72831843512153e+01	-1.77660643615721e+01
1.76817299131726e+01	-1.74859342214041e+01
1.80894658281185e+01	-1.72036763923372e+01
1.85066040231103e+01	-1.69192955132071e+01
1.89333613121855e+01	-1.66327987301443e+01
1.93699595090551e+01	-1.63441957464077e+01
1.98166255423942e+01	-1.60534988626675e+01
2.02735915737920e+01	-1.57607230078750e+01
2.07410951184210e+01	-1.54658857604742e+01
2.12193791684895e+01	-1.51690073601033e+01
2.17086923195406e+01	-1.48701107099591e+01
2.22092888996634e+01	-1.45692213698290e+01
2.27214291016839e+01	-1.42663675403393e+01
2.32453791184044e+01	-1.39615800385851e+01
2.37814112809615e+01	-1.36548922656289e+01
2.43298042003741e+01	-1.33463401663564e+01
2.48908429123558e+01	-1.30359621822651e+01
2.54648190254671e+01	-1.27237991976952e+01
2.60520308726827e+01	-1.24098944801408e+01
2.66527836664555e+01	-1.20942936154092e+01
2.72673896573547e+01	-1.17770444380847e+01
2.78961682963638e+01	-1.14581969582217e+01
2.85394464009191e+01	-1.11378032847204e+01
2.91975583247790e+01	-1.08159175462549e+01
2.98708461318093e+01	-1.04925958102210e+01
3.05596597737760e+01	-1.01678960005712e+01
3.12643572722382e+01	-9.84187781486129e+00
3.19853049046357e+01	-9.51460264139406e+00
3.27228773946669e+01	-9.18613347665129e+00
3.34774581070574e+01	-8.85653484378935e+00
3.42494392468201e+01	-8.52587271236855e+00
3.50392220631091e+01	-8.19421441991756e+00
3.58472170577761e+01	-7.86162859553134e+00
3.66738441987342e+01	-7.52818508563800e+00
3.75195331382432e+01	-7.19395488248061e+00
3.83847234362282e+01	-6.85901005502710e+00
3.92698647887470e+01	-6.52342368274826e+00
4.01754172617274e+01	-6.18726979212549e+00
4.11018515300928e+01	-5.85062329580389e+00
4.20496491224037e+01	-5.51355993446846e+00
4.30193026711386e+01	-5.17615622126629e+00
4.40113161687482e+01	-4.83848938853970e+00
4.50262052296127e+01	-4.50063733671564e+00
4.60644973580409e+01	-4.16267858516719e+00
4.71267322224483e+01	-3.82469222461122e+00
4.82134619358582e+01	-3.48675787099849e+00
4.93252513428712e+01	-3.14895562021521e+00
5.04626783132516e+01	-2.81136600372448e+00
5.16263340422846e+01	-2.47406994431977e+00
5.28168233580588e+01	-2.13714871200646e+00
5.40347650358351e+01	-1.80068387948944e+00
5.52807921196649e+01	-1.46475727688185e+00
5.65555522514243e+01	-1.12945094552987e+00
5.78597080074360e+01	-7.94847090296683e-01
5.91939372428539e+01	-4.61028030291290e-01
6.05589334439885e+01	-1.28076147630572e-01
6.19554060887574e+01	2.03926165924751e-01
6.33840810154470e+01	5.34896564837464e-01
6.48457007999789e+01	8.64752808092209e-01
6.63410251418746e+01	1.19341282026293e+00
6.78708312591213e+01	1.52079475528305e+00
6.94359142921431e+01	1.84681706307991e+00
7.10370877170875e+01	2.17139855892497e+00
7.26751837686421e+01	2.49445849559155e+00
7.43510538726017e+01	2.81591663799522e+00
7.60655690884097e+01	3.13569334036061e+00
7.78196205619051e+01	3.45370962555083e+00
7.96141199885091e+01	3.76988726625558e+00
8.14500000870932e+01	4.08414886794188e+00
8.33282150847739e+01	4.39641795284926e+00
8.52497412128872e+01	4.70661904493149e+00
8.72155772144001e+01	5.01467775509949e+00
8.92267448630227e+01	5.32052086648252e+00
9.12842894942904e+01	5.62407641892391e+00
9.33892805488941e+01	5.92527379247735e+00
9.55428121285378e+01	6.22404378923910e+00
9.77460035646155e+01	6.52031871295153e+00
1.00000000000000e+02	6.81403244594970e+00
1.02305972984251e+02	7.10512052293397e+00
1.04665121082543e+02	7.39352020098257e+00
1.07078670498640e+02	7.67917052550653e+00
1.09547875712234e+02	7.96201239158336e+00
1.12074020130978e+02	8.24198860043695e+00
1.14658416757563e+02	8.51904391071927e+00
1.17302408872162e+02	8.79312508426023e+00
1.20007370730629e+02	9.06418092628729e+00
1.22774708278787e+02	9.33216231984929e+00
1.25605859883189e+02	9.59702225444110e+00
1.28502297078731e+02	9.85871584899512e+00
1.31465525333509e+02	1.01172003691510e+01
1.34497084831303e+02	1.03724352392488e+01
1.37598551272118e+02	1.06243820489323e+01
1.40771536691173e+02	1.08730045552307e+01
1.44017690296787e+02	1.11182686798645e+01
1.47338699327572e+02	1.13601425027918e+01
1.50736289929413e+02	1.15985962520512e+01
1.54212228052647e+02	1.18336022907186e+01
1.57768320369953e+02	1.20651351013328e+01
1.61406415215390e+02	1.22931712683725e+01
1.65128403545105e+02	1.25176894594413e+01
1.68936219920180e+02	1.27386704056211e+01
1.72831843512154e+02	1.29560968815383e+01
1.76817299131726e+02	1.31699536856593e+01
1.80894658281186e+02	1.33802276213214e+01
1.85066040231103e+02	1.35869074788091e+01
1.89333613121855e+02	1.37899840188988e+01
1.93699595090551e+02	1.39894499581717e+01
1.98166255423943e+02	1.41852999562580e+01
2.02735915737920e+02	1.43775306052432e+01
2.07410951184210e+02	1.45661404211646e+01
2.12193791684896e+02	1.47511298377103e+01
2.17086923195407e+02	1.49325012020116e+01
2.22092888996635e+02	1.51102587722075e+01
2.27214291016839e+02	1.52844087167629e+01
2.32453791184045e+02	1.54549591150925e+01
2.37814112809616e+02	1.56219199590438e+01
2.43298042003742e+02	1.57853031550343e+01
2.48908429123559e+02	1.59451225261190e+01
2.54648190254672e+02	1.61013938136041e+01
2.60520308726828e+02	1.62541346777470e+01
2.66527836664556e+02	1.64033646967145e+01
2.72673896573548e+02	1.65491053636652e+01
2.78961682963639e+02	1.66913800808559e+01
2.85394464009192e+02	1.68302141509236e+01
2.91975583247791e+02	1.69656347641509e+01
2.98708461318094e+02	1.70976709818043e+01
3.05596597737761e+02	1.72263537147795e+01
3.12643572722383e+02	1.73517156974595e+01
3.19853049046358e+02	1.74737914562299e+01
3.27228773946670e+02	1.75926172726991e+01
3.34774581070575e+02	1.77082311412242e+01
3.42494392468202e+02	1.78206727208668e+01
3.50392220631093e+02	1.79299832816900e+01
3.58472170577762e+02	1.80362056453692e+01
3.66738441987343e+02	1.81393841204643e+01
3.75195331382434e+02	1.82395644324460e+01
3.83847234362283e+02	1.83367936487571e+01
3.92698647887472e+02	1.84311200993192e+01
4.01754172617275e+02	1.85225932927401e+01
4.11018515300930e+02	1.86112638288366e+01
4.20496491224038e+02	1.86971833079180e+01
4.30193026711388e+02	1.87804042372088e+01
4.40113161687483e+02	1.88609799350539e+01
4.50262052296129e+02	1.89389644335913e+01
4.60644973580411e+02	1.90144123801037e+01
4.71267322224485e+02	1.90873789379659e+01
4.82134619358584e+02	1.91579196876044e+01
4.93252513428714e+02	1.92260905279068e+01
5.04626783132518e+02	1.92919475787949e+01
5.16263340422848e+02	1.93555470852751e+01
5.28168233580590e+02	1.94169453236235e+01
5.40347650358353e+02	1.94761985098935e+01
5.52807921196651e+02	1.95333627113844e+01
5.65555522514245e+02	1.95884937612968e+01
5.78597080074362e+02	1.96416471768481e+01
5.91939372428541e+02	1.96928780812014e+01
6.05589334439888e+02	1.97422411294683e+01
6.19554060887576e+02	1.97897904388433e+01
6.33840810154473e+02	1.98355795230611e+01
6.48457007999791e+02	1.98796612314381e+01
6.63410251418748e+02	1.99220876922505e+01
6.78708312591215e+02	1.99629102608524e+01
6.94359142921433e+02	2.00021794721630e+01
7.10370877170877e+02	2.00399449977365e+01
7.26751837686424e+02	2.00762556074291e+01
7.43510538726019e+02	2.01111591351325e+01
7.60655690884099e+02	2.01447024490165e+01
7.78196205619053e+02	2.01769314258571e+01
7.96141199885094e+02	2.02078909291914e+01
8.14500000870935e+02	2.02376247914912e+01
8.33282150847742e+02	2.02661757999398e+01
8.52497412128875e+02	2.02935856855220e+01
8.72155772144005e+02	2.03198951156483e+01
8.92267448630230e+02	2.03451436897384e+01
9.12842894942907e+02	2.03693699376470e+01
9.33892805488944e+02	2.03926113209413e+01
9.55428121285382e+02	2.04149042365999e+01
9.77460035646158e+02	2.04362840230520e+01
1.00000000000001e+03	2.04567849683121e+01
1.02305972984252e+03	2.04764403201870e+01
1.04665121082543e+03	2.04952822980478e+01
1.07078670498640e+03	2.05133421063813e+01
1.09547875712234e+03	2.05306499497111e+01
1.12074020130979e+03	2.05472350487114e+01
1.14658416757563e+03	2.05631256576257e+01
1.17302408872162e+03	2.05783490823913e+01
1.20007370730630e+03	2.05929316999191e+01
1.22774708278788e+03	2.06068989778340e+01
1.25605859883190e+03	2.06202754949142e+01
1.28502297078732e+03	2.06330849620338e+01
1.31465525333509e+03	2.06453502434410e+01
1.34497084831303e+03	2.06570933783363e+01
1.37598551272118e+03	2.06683356026073e+01
1.40771536691174e+03	2.06790973708282e+01
1.44017690296787e+03	2.06893983780451e+01
1.47338699327573e+03	2.06992575817335e+01
1.50736289929413e+03	2.07086932236439e+01
1.54212228052648e+03	2.07177228514118e+01
1.57768320369953e+03	2.07263633400638e+01
1.61406415215391e+03	2.07346309131687e+01
1.65128403545105e+03	2.07425411639464e+01
1.68936219920180e+03	2.07501090757036e+01
1.72831843512154e+03	2.07573490423114e+01
1.76817299131727e+03	2.07642748879784e+01
1.80894658281187e+03	2.07708998869314e+01
1.85066040231104e+03	2.07772367823929e+01
1.89333613121856e+03	2.07832978053813e+01
1.93699595090552e+03	2.07890946929223e+01
1.98166255423943e+03	2.07946387058557e+01
2.02735915737921e+03	2.07999406461767e+01
2.07410951184211e+03	2.08050108739643e+01
2.12193791684897e+03	2.08098593237509e+01
2.17086923195408e+03	2.08144955205303e+01
2.22092888996636e+03	2.08189285951608e+01
2.27214291016840e+03	2.08231672994914e+01
2.32453791184046e+03	2.08272200208572e+01
2.37814112809617e+03	2.08310947961982e+01
2.43298042003742e+03	2.08347993256730e+01
2.48908429123560e+03	2.08383409859522e+01
2.54648190254672e+03	2.08417268429048e+01
2.60520308726829e+03	2.08449636639513e+01
2.66527836664557e+03	2.08480579299708e+01
2.72673896573550e+03	2.08510158467964e+01
2.78961682963640e+03	2.08538433563448e+01
2.85394464009193e+03	2.08565461472176e+01
2.91975583247792e+03	2.08591296650754e+01
2.98708461318095e+03	2.08615991225466e+01
3.05596597737762e+03	2.08639595088092e+01
3.12643572722385e+03	2.08662155987480e+01
3.19853049046359e+03	2.08683719618631e+01
3.27228773946671e+03	2.08704329707299e+01
3.34774581070577e+03	2.08724028092686e+01
3.42494392468203e+03	2.08742854805749e+01
3.50392220631094e+03	2.08760848144827e+01
3.58472170577764e+03	2.08778044749007e+01
3.66738441987345e+03	2.08794479667186e+01
3.75195331382435e+03	2.08810186426081e+01
3.83847234362285e+03	2.08825197093765e+01
3.92698647887473e+03	2.08839542342377e+01
4.01754172617277e+03	2.08853251507279e+01
4.11018515300932e+03	2.08866352642990e+01
4.20496491224040e+03	2.08878872579833e+01
4.30193026711389e+03	2.08890836974551e+01
4.40113161687485e+03	2.08902270361837e+01
4.50262052296131e+03	2.08913196201376e+01
4.60644973580413e+03	2.08923636925179e+01
4.71267322224487e+03	2.08933613980998e+01
4.82134619358586e+03	2.08943147875326e+01
4.93252513428715e+03	2.08952258214353e+01
5.04626783132520e+03	2.08960963741485e+01
5.16263340422850e+03	2.08969282376805e+01
5.28168233580592e+03	2.08977231250724e+01
5.40347650358356e+03	2.08984826739998e+01
5.52807921196653e+03	2.08992084499352e+01
5.65555522514247e+03	2.08999019493394e+01
5.78597080074364e+03	2.09005646026644e+01
5.91939372428544e+03	2.09011977772057e+01
6.05589334439890e+03	2.09018027799142e+01
6.19554060887578e+03	2.09023808599951e+01
6.33840810154475e+03	2.09029332114040e+01
6.48457007999794e+03	2.09034609753131e+01
6.63410251418751e+03	2.09039652424397e+01
6.78708312591218e+03	2.09044470551787e+01
6.94359142921436e+03	2.09049074098189e+01
7.10370877170880e+03	2.09053472584257e+01
7.26751837686426e+03	2.09057675109975e+01
7.43510538726022e+03	2.09061690370614e+01
7.60655690884102e+03	2.09065526676918e+01
7.78196205619056e+03	2.09069191970024e+01
7.96141199885097e+03	2.09072693839108e+01
8.14500000870938e+03	2.09076039535881e+01
8.33282150847745e+03	2.09079235990491e+01
8.52497412128878e+03	2.09082289824553e+01
8.72155772144008e+03	2.09085207365499e+01
8.92267448630233e+03	2.09087994659445e+01
9.12842894942911e+03	2.09090657483291e+01
9.33892805488948e+03	2.09093201356843e+01
9.55428121285386e+03	2.09095631553702e+01
9.77460035646162e+03	2.09097953113248e+01
1.00000000000001e+04	2.09100170849438e+01
1.02305972984252e+04	2.09102289361983e+01
1.04665121082544e+04	2.09104313044828e+01
1.07078670498641e+04	2.09106246096447e+01
1.09547875712234e+04	2.09108092526689e+01
1.12074020130979e+04	2.09109856167010e+01
1.14658416757563e+04	2.09111540676874e+01
1.17302408872163e+04	2.09113149551996e+01
1.20007370730630e+04	2.09114686131625e+01
1.22774708278788e+04	2.09116153605309e+01
1.25605859883190e+04	2.09117555018619e+01
1.28502297078732e+04	2.09118893281214e+01
1.31465525333510e+04	2.09120171171172e+01
1.34497084831304e+04	2.09121391341619e+01
1.37598551272119e+04	2.09122556326484e+01
1.40771536691174e+04	2.09123668544289e+01
1.44017690296788e+04	2.09124730305101e+01
1.47338699327574e+04	2.09125743813535e+01
1.50736289929414e+04	2.09126711174843e+01
1.54212228052648e+04	2.09127634397839e+01
1.57768320369954e+04	2.09128515400366e+01
1.61406415215391e+04	2.09129356012332e+01
1.65128403545106e+04	2.09130157979860e+01
1.68936219920181e+04	2.09130922968857e+01
1.72831843512155e+04	2.09131652568669e+01
1.76817299131728e+04	2.09132348294837e+01
1.80894658281188e+04	2.09133011592927e+01
1.85066040231105e+04	2.09133643841136e+01
1.89333613121857e+04	2.09134246352996e+01
1.93699595090553e+04	2.09134820380316e+01
1.98166255423944e+04	2.09135367116019e+01
2.02735915737922e+04	2.09135887695894e+01
2.07410951184212e+04	2.09136383202041e+01
2.12193791684898e+04	2.09136854663846e+01
2.17086923195409e+04	2.09137303061334e+01
2.22092888996636e+04	2.09137729326047e+01
2.27214291016841e+04	2.09138134344038e+01
2.32453791184047e+04	2.09138518956911e+01
2.37814112809618e+04	2.09138883964241e+01
2.43298042003743e+04	2.09139230124421e+01
2.48908429123561e+04	2.09139558156808e+01
2.54648190254673e+04	2.09139868743363e+01
2.60520308726830e+04	2.09140162529486e+01
2.66527836664558e+04	2.09140440125849e+01
2.72673896573551e+04	2.09140702109519e+01
2.78961682963641e+04	2.09140949025036e+01
2.85394464009194e+04	2.09141181385519e+01
2.91975583247793e+04	2.09141399673916e+01
2.98708461318096e+04	2.09141604344066e+01
3.05596597737763e+04	2.09141795821358e+01
3.12643572722386e+04	2.09141974503902e+01
3.19853049046361e+04	2.09142140762960e+01
3.27228773946672e+04	2.09142294944312e+01
3.34774581070578e+04	2.09142437368281e+01
3.42494392468204e+04	2.09142568331016e+01
3.50392220631095e+04	2.09142688104731e+01
3.58472170577765e+04	2.09142796938395e+01
3.66738441987346e+04	2.09142895058324e+01
3.75195331382437e+04	2.09142982668319e+01
3.83847234362286e+04	2.09143059950853e+01
3.92698647887475e+04	2.09143127066294e+01
4.01754172617278e+04	2.09143184154048e+01
4.11018515300933e+04	2.09143231333265e+01
4.20496491224042e+04	2.09143268701499e+01
4.30193026711391e+04	2.09143296336851e+01
4.40113161687487e+04	2.09143314296377e+01
4.50262052296132e+04	2.09143322617794e+01
4.60644973580415e+04	2.09143321318371e+01
4.71267322224488e+04	2.09143310395163e+01
4.82134619358588e+04	2.09143289825641e+01
4.93252513428717e+04	2.09143259566959e+01
5.04626783132522e+04	2.09143219556280e+01
5.16263340422852e+04	2.09143169710523e+01
5.28168233580594e+04	2.09143109925933e+01
5.40347650358357e+04	2.09143040078280e+01
5.52807921196656e+04	2.09142960022393e+01
5.65555522514249e+04	2.09142869592075e+01
5.78597080074367e+04	2.09142768598835e+01
5.91939372428546e+04	2.09142656833418e+01
6.05589334439892e+04	2.09142534062923e+01
6.19554060887581e+04	2.09142400032596e+01
6.33840810154477e+04	2.09142254463467e+01
6.48457007999796e+04	2.09142097053429e+01
6.63410251418753e+04	2.09141927474832e+01
6.78708312591220e+04	2.09141745375402e+01
6.94359142921439e+04	2.09141550376575e+01
7.10370877170883e+04	2.09141342073418e+01
7.26751837686429e+04	2.09141120032462e+01
7.43510538726025e+04	2.09140883792685e+01
7.60655690884105e+04	2.09140632862751e+01
7.78196205619059e+04	2.09140366721292e+01
7.96141199885100e+04	2.09140084815152e+01
8.14500000870941e+04	2.09139786558332e+01
8.33282150847748e+04	2.09139471331208e+01
8.52497412128882e+04	2.09139138478764e+01
8.72155772144011e+04	2.09138787308998e+01
8.92267448630237e+04	2.09138417092352e+01
9.12842894942914e+04	2.09138027059245e+01
9.33892805488952e+04	2.09137616399588e+01
9.55428121285389e+04	2.09137184259757e+01
9.77460035646166e+04	2.09136729742067e+01
1.00000000000002e+05	2.09136251901775e+01
1.02305972984252e+05	2.09135749746369e+01
1.04665121082544e+05	2.09135222232441e+01
1.07078670498641e+05	2.09134668264005e+01
1.09547875712235e+05	2.09134086690100e+01
1.12074020130980e+05	2.09133476302785e+01
1.14658416757564e+05	2.09132835833725e+01
1.17302408872163e+05	2.09132163952776e+01
1.20007370730631e+05	2.09131459264116e+01
1.22774708278789e+05	2.09130720304167e+01
1.25605859883190e+05	2.09129945538271e+01
1.28502297078733e+05	2.09129133356867e+01
1.31465525333510e+05	2.09128282073683e+01
1.34497084831304e+05	2.09127389920690e+01
1.37598551272119e+05	2.09126455045192e+01
1.40771536691175e+05	2.09125475506140e+01
1.44017690296788e+05	2.09124449269930e+01
1.47338699327574e+05	2.09123374205719e+01
1.50736289929415e+05	2.09122248081745e+01
1.54212228052649e+05	2.09121068560276e+01
1.57768320369954e+05	2.09119833192978e+01
1.61406415215392e+05	2.09118539416014e+01
1.65128403545107e+05	2.09117184544230e+01
1.68936219920181e+05	2.09115765766162e+01
1.72831843512155e+05	2.09114280137735e+01
1.76817299131729e+05	2.09112724576755e+01
1.80894658281188e+05	2.09111095856121e+01
1.85066040231105e+05	2.09109390597183e+01
1.89333613121857e+05	2.09107605263369e+01
1.93699595090553e+05	2.09105736151933e+01
1.98166255423945e+05	2.09103779387275e+01
2.02735915737923e+05	2.09101730911955e+01
2.07410951184213e+05	2.09099586479817e+01
2.12193791684898e+05	2.09097341645825e+01
2.17086923195410e+05	2.09094991757433e+01
2.22092888996637e+05	2.09092531945591e+01
2.27214291016842e+05	2.09089957114048e+01
2.32453791184048e+05	2.09087261928834e+01
2.37814112809619e+05	2.09084440808287e+01
2.43298042003744e+05	2.09081487910380e+01
2.48908429123562e+05	2.09078397121994e+01
2.54648190254674e+05	2.09075162045239e+01
2.60520308726831e+05	2.09071775985508e+01
2.66527836664559e+05	2.09068231936844e+01
2.72673896573552e+05	2.09064522568459e+01
2.78961682963642e+05	2.09060640209169e+01
2.85394464009195e+05	2.09056576832296e+01
2.91975583247794e+05	2.09052324039095e+01
2.98708461318097e+05	2.09047873041572e+01
3.05596597737764e+05	2.09043214645191e+01
3.12643572722387e+05	2.09038339229762e+01
3.19853049046362e+05	2.09033236729912e+01
3.27228773946674e+05	2.09027896615149e+01
3.34774581070579e+05	2.09022307868629e+01
3.42494392468206e+05	2.09016458964559e+01
3.50392220631097e+05	2.09010337845242e+01
3.58472170577766e+05	2.09003931896729e+01
3.66738441987347e+05	2.08997227924341e+01
